
# Total neutron yield = 0.0  n/decay
	 be9 0.0
# Integral of spectrum = 0.0003765456503013772  n/decay
100 0.0
200 0.0
300 0.0
400 0.0
500 0.0
600 0.0
700 0.0
800 0.0
900 0.0
1000 0.0
1100 0.0
1200 0.0
1300 0.0
1400 0.0
1500 0.0
1600 0.0
1700 1.7792326329296384e-09
1800 1.8215464159602167e-08
1900 2.5359830512675908e-08
2000 2.8965534778971037e-08
2100 3.372349091127345e-08
2200 3.74312851743482e-08
2300 4.075347503678212e-08
2400 4.451011284077895e-08
2500 4.869554620069856e-08
2600 5.3834153434698205e-08
2700 6.61528224785498e-08
2800 7.460297582579011e-08
2900 8.767039704191954e-08
3000 1.0171116521757727e-07
3100 1.1180967475763026e-07
3200 1.1912928136894937e-07
3300 1.238936842855388e-07
3400 1.2633911603589228e-07
3500 1.2495973177219852e-07
3600 1.233045865683018e-07
3700 1.2151343560429011e-07
3800 1.1898420208806214e-07
3900 1.1650603843716251e-07
4000 1.1436454421213042e-07
4100 1.115946017393717e-07
4200 1.0877249935014612e-07
4300 1.059217793176889e-07
4400 1.0330630039341332e-07
4500 1.0066993470754915e-07
4600 9.835772327562295e-08
4700 9.626811634495358e-08
4800 9.425492379950616e-08
4900 9.27191761813358e-08
5000 8.949272962416772e-08
5100 8.603344188114418e-08
5200 8.291136004449434e-08
5300 7.876620901397821e-08
5400 7.429093864464514e-08
5500 6.978919748753986e-08
5600 6.572232678576199e-08
5700 6.14535191845847e-08
5800 5.672153128193125e-08
5900 5.104540569067279e-08
6000 4.55479578382712e-08
6100 4.055687498006445e-08
6200 3.53969817243152e-08
6300 3.04185163464378e-08
6400 2.573831732619589e-08
6500 2.109614882164546e-08
6600 1.6260100861241508e-08
6700 1.2760868650677196e-08
6800 1.0038286871205703e-08
6900 7.974006678967634e-09
7000 6.348150582403127e-09
7100 5.02618084897517e-09
7200 4.01298660573614e-09
7300 3.121951635983363e-09
7400 2.3661481773271184e-09
7500 1.921057823353523e-09
7600 1.4923370958953986e-09
7700 1.2238008565186085e-09
7800 9.301734863349307e-10
7900 6.207554427116653e-10
8000 3.0294688452303696e-10
8100 4.483052137954101e-13
8200 3.3791006711924854e-15
8300 2.5282878450292323e-15
8400 1.7115224103600829e-15
8500 1.0031620902044177e-15
8600 4.2244026363924035e-16
8700 0.0
8800 0.0
8900 0.0
9000 0.0
9100 0.0
9200 0.0
9300 0.0
9400 0.0
9500 0.0
9600 0.0
9700 0.0
9800 0.0
9900 0.0
10000 0.0
10100 0.0
10200 0.0
10300 0.0
10400 0.0
10500 0.0
10600 0.0
10700 0.0
10800 0.0
10900 0.0
11000 0.0
11100 0.0
11200 0.0
11300 0.0
11400 0.0
11500 0.0
11600 0.0
11700 0.0
11800 0.0
11900 0.0
12000 0.0
12100 0.0
12200 0.0
12300 0.0
12400 0.0
12500 0.0
12600 0.0
12700 0.0
12800 0.0
12900 0.0
13000 0.0
13100 0.0
13200 0.0
13300 0.0
13400 0.0
13500 0.0
13600 0.0
13700 0.0
13800 0.0
13900 0.0
14000 0.0
14100 0.0
14200 0.0
14300 0.0
14400 0.0
14500 0.0
14600 0.0
14700 0.0
14800 0.0
14900 0.0
15000 0.0
